epoch,time,train/box_loss,train/cls_loss,train/dfl_loss,metrics/precision(B),metrics/recall(B),metrics/mAP50(B),metrics/mAP50-95(B),val/box_loss,val/cls_loss,val/dfl_loss,lr/pg0,lr/pg1,lr/pg2
1,1330.13,0.65241,1.08938,0.9479,0.99832,0.99915,0.99486,0.9678,0.23291,0.25985,0.89609,0.00333284,0.00333284,0.00333284
2,2665.69,0.43736,0.3906,0.84969,0.99852,0.9989,0.99496,0.98116,0.17998,0.18324,0.8891,0.00660018,0.00660018,0.00660018
3,4010.42,0.39892,0.3322,0.8449,0.99916,0.99944,0.99494,0.98797,0.15986,0.15059,0.88224,0.00980152,0.00980152,0.00980152
4,5368.53,0.34266,0.27328,0.83596,0.99917,0.9995,0.99496,0.99167,0.13007,0.1198,0.8763,0.009703,0.009703,0.009703
5,6710.46,0.29515,0.23193,0.82854,0.99905,0.9996,0.99496,0.99305,0.11996,0.10655,0.87284,0.009604,0.009604,0.009604
6,8030.76,0.27109,0.2111,0.82426,0.99927,0.99938,0.99496,0.99353,0.10345,0.09416,0.87059,0.009505,0.009505,0.009505
7,9340.98,0.25514,0.19851,0.82187,0.99918,0.99959,0.99498,0.99373,0.09708,0.08807,0.86835,0.009406,0.009406,0.009406
8,10668.6,0.24389,0.18959,0.82028,0.99919,0.99961,0.99497,0.99407,0.09338,0.08503,0.86769,0.009307,0.009307,0.009307
9,12014.4,0.23437,0.1828,0.81812,0.99919,0.99967,0.99497,0.9941,0.09037,0.08452,0.86619,0.009208,0.009208,0.009208
10,13316.6,0.2282,0.17852,0.81745,0.99922,0.9996,0.99497,0.99406,0.08642,0.07913,0.86521,0.009109,0.009109,0.009109
11,14631,0.22223,0.17477,0.81637,0.99927,0.99967,0.99498,0.99402,0.08211,0.07692,0.86477,0.00901,0.00901,0.00901
12,15950.5,0.21674,0.16972,0.8153,0.99932,0.99962,0.99498,0.99396,0.07988,0.0734,0.86432,0.008911,0.008911,0.008911
13,17264.2,0.21333,0.16849,0.81481,0.99934,0.99966,0.99498,0.994,0.07855,0.07266,0.86358,0.008812,0.008812,0.008812
14,18567.2,0.21015,0.1653,0.81458,0.99931,0.99967,0.99498,0.99404,0.07734,0.07162,0.86327,0.008713,0.008713,0.008713
15,19871,0.20709,0.16471,0.81382,0.99933,0.99966,0.99498,0.99409,0.07663,0.07124,0.86282,0.008614,0.008614,0.008614
16,21170.8,0.20335,0.1609,0.81298,0.99937,0.99964,0.99498,0.99409,0.07595,0.07009,0.86265,0.008515,0.008515,0.008515
17,22486.2,0.20051,0.15912,0.81287,0.99935,0.99968,0.99498,0.99412,0.07505,0.06948,0.86233,0.008416,0.008416,0.008416
18,23795.6,0.19826,0.15753,0.81234,0.99932,0.99969,0.99498,0.99415,0.07449,0.06876,0.86213,0.008317,0.008317,0.008317
19,25101.9,0.19638,0.15679,0.81193,0.99931,0.99971,0.99498,0.99416,0.07404,0.06824,0.86191,0.008218,0.008218,0.008218
20,26406,0.19568,0.15531,0.81225,0.99934,0.99967,0.99498,0.99418,0.07391,0.06803,0.86178,0.008119,0.008119,0.008119
21,27733.7,0.1931,0.15412,0.81156,0.99929,0.99971,0.99498,0.99418,0.07337,0.06758,0.86161,0.00802,0.00802,0.00802
22,29058.7,0.19188,0.15294,0.81143,0.9993,0.99972,0.99498,0.99418,0.07284,0.06721,0.86148,0.007921,0.007921,0.007921
23,30370.9,0.18998,0.1515,0.81126,0.99931,0.99973,0.99498,0.99419,0.07259,0.06739,0.86136,0.007822,0.007822,0.007822
24,31680.4,0.18924,0.15145,0.81108,0.99929,0.99976,0.99498,0.9942,0.0725,0.06783,0.86121,0.007723,0.007723,0.007723
25,32991,0.18729,0.15028,0.81059,0.99938,0.99968,0.99498,0.99421,0.07237,0.06776,0.86111,0.007624,0.007624,0.007624
26,34313.8,0.18552,0.14884,0.81034,0.9994,0.99966,0.99498,0.99422,0.07253,0.06755,0.86101,0.007525,0.007525,0.007525
27,35635.3,0.18468,0.14819,0.81075,0.99939,0.99968,0.99498,0.99423,0.07265,0.06791,0.8609,0.007426,0.007426,0.007426
28,36952.4,0.1849,0.14795,0.81013,0.99938,0.99968,0.99498,0.99425,0.07258,0.06806,0.86078,0.007327,0.007327,0.007327
29,38310.1,0.18342,0.1479,0.81022,0.99939,0.9997,0.99498,0.99428,0.0725,0.06838,0.86071,0.007228,0.007228,0.007228
30,39658.7,0.18266,0.147,0.81007,0.99939,0.99972,0.99498,0.99428,0.07248,0.06884,0.86062,0.007129,0.007129,0.007129
31,40997.1,0.18199,0.14747,0.8102,0.99939,0.99973,0.99498,0.9943,0.07249,0.06951,0.86054,0.00703,0.00703,0.00703
32,42351.4,0.17981,0.14463,0.80947,0.99942,0.99972,0.99498,0.99431,0.07224,0.06976,0.86046,0.006931,0.006931,0.006931
33,43704.3,0.17884,0.14358,0.80953,0.99942,0.99973,0.99498,0.99433,0.07214,0.07032,0.86036,0.006832,0.006832,0.006832
34,45116.3,0.17756,0.14279,0.8097,0.99937,0.99978,0.99498,0.99435,0.07185,0.07026,0.86024,0.006733,0.006733,0.006733
35,46533,0.17542,0.14163,0.80877,0.99936,0.99979,0.99497,0.99437,0.07162,0.07046,0.86014,0.006634,0.006634,0.006634
36,47906,0.17456,0.14131,0.80907,0.99939,0.99978,0.99497,0.99439,0.07137,0.07014,0.86002,0.006535,0.006535,0.006535
37,49286.6,0.17352,0.14,0.80887,0.99936,0.99978,0.99497,0.99441,0.07104,0.07111,0.85986,0.006436,0.006436,0.006436
38,50646,0.17177,0.13896,0.80886,0.99941,0.99978,0.99497,0.99442,0.07079,0.06958,0.85983,0.006337,0.006337,0.006337
39,51999.9,0.17052,0.13795,0.80827,0.99946,0.99974,0.99497,0.99444,0.07051,0.0699,0.85965,0.006238,0.006238,0.006238
40,53420.2,0.17073,0.13837,0.80841,0.99951,0.99974,0.99497,0.99445,0.07009,0.06925,0.85959,0.006139,0.006139,0.006139
41,54810.8,0.16949,0.1366,0.80794,0.99952,0.99973,0.99498,0.99447,0.06962,0.06908,0.85947,0.00604,0.00604,0.00604
42,56167.8,0.16982,0.1375,0.80798,0.99954,0.99973,0.99498,0.99447,0.06934,0.06922,0.85936,0.005941,0.005941,0.005941
43,57476.5,0.16878,0.13594,0.80803,0.99954,0.99975,0.99498,0.99447,0.06872,0.06881,0.85929,0.005842,0.005842,0.005842
44,58793.9,0.16724,0.13554,0.80768,0.99955,0.99976,0.99497,0.99446,0.06824,0.06891,0.85924,0.005743,0.005743,0.005743
45,60110.1,0.16583,0.1345,0.80739,0.99955,0.99975,0.99497,0.99446,0.0677,0.06975,0.85916,0.005644,0.005644,0.005644
46,61435.7,0.16599,0.13405,0.80729,0.99956,0.99975,0.99497,0.99448,0.06686,0.06964,0.85904,0.005545,0.005545,0.005545
47,62755.1,0.16521,0.13387,0.80737,0.99958,0.99974,0.99497,0.99447,0.06647,0.06941,0.85895,0.005446,0.005446,0.005446
48,64068,0.16476,0.13364,0.80708,0.9996,0.99974,0.99497,0.99446,0.06608,0.06943,0.85883,0.005347,0.005347,0.005347
49,840.375,0.16279,0.13226,0.80764,0.99958,0.99975,0.99497,0.99447,0.0653,0.06817,0.85877,0.005248,0.005248,0.005248
50,1654.85,0.16384,0.13345,0.80765,0.99959,0.99975,0.99497,0.99447,0.06468,0.06732,0.85862,0.005149,0.005149,0.005149
51,2456.13,0.16397,0.13379,0.80743,0.99957,0.99977,0.99497,0.99447,0.06416,0.06707,0.85849,0.00505,0.00505,0.00505
52,3251.18,0.16442,0.13383,0.80744,0.99958,0.99978,0.99498,0.99447,0.06378,0.0668,0.8584,0.004951,0.004951,0.004951
53,4028.22,0.16246,0.13171,0.80729,0.99959,0.99978,0.99498,0.99447,0.06347,0.0665,0.85831,0.004852,0.004852,0.004852
54,4799.5,0.16156,0.13085,0.80678,0.99959,0.99978,0.99498,0.99448,0.06325,0.06643,0.85822,0.004753,0.004753,0.004753
55,5562.19,0.16134,0.13078,0.80703,0.99959,0.99978,0.99498,0.99448,0.06302,0.06628,0.85811,0.004654,0.004654,0.004654
56,6339.3,0.16014,0.12968,0.8071,0.9996,0.9998,0.99498,0.99452,0.06284,0.06618,0.85802,0.004555,0.004555,0.004555
57,7093.96,0.15893,0.12927,0.80629,0.99959,0.99981,0.99498,0.99449,0.06263,0.06622,0.85797,0.004456,0.004456,0.004456
58,7841.26,0.15857,0.12938,0.80658,0.9996,0.99982,0.99498,0.99453,0.06244,0.06632,0.8579,0.004357,0.004357,0.004357
59,8543.37,0.15696,0.12789,0.80614,0.9996,0.99982,0.99498,0.99453,0.06207,0.06643,0.85781,0.004258,0.004258,0.004258
60,9270.15,0.15535,0.12644,0.80562,0.9996,0.99982,0.99498,0.99453,0.06157,0.06565,0.85776,0.004159,0.004159,0.004159
61,10004,0.1554,0.12673,0.80592,0.99961,0.99983,0.99498,0.99453,0.06137,0.06574,0.85771,0.00406,0.00406,0.00406
62,10754.7,0.15497,0.12608,0.80612,0.99962,0.99983,0.99498,0.99453,0.06126,0.0658,0.85764,0.003961,0.003961,0.003961
63,11483.2,0.15457,0.12648,0.80585,0.99964,0.99982,0.99498,0.99453,0.06101,0.0655,0.85755,0.003862,0.003862,0.003862
64,12251.2,0.15269,0.12444,0.80522,0.99965,0.99981,0.99497,0.99453,0.06111,0.06612,0.8575,0.003763,0.003763,0.003763
65,13034.9,0.15148,0.1234,0.80536,0.99964,0.99981,0.99497,0.99453,0.0606,0.06515,0.85742,0.003664,0.003664,0.003664
66,13830.4,0.1502,0.12218,0.80497,0.99966,0.99982,0.99497,0.99453,0.06044,0.06519,0.85732,0.003565,0.003565,0.003565
67,14599.6,0.14832,0.12107,0.80467,0.99964,0.99981,0.99497,0.99453,0.0603,0.06521,0.85721,0.003466,0.003466,0.003466
68,15351.5,0.14808,0.12084,0.80511,0.99965,0.99984,0.99497,0.99454,0.0599,0.06506,0.85712,0.003367,0.003367,0.003367
69,16125.3,0.14714,0.11953,0.8046,0.99967,0.99984,0.99498,0.99454,0.05981,0.06536,0.85705,0.003268,0.003268,0.003268
70,16893,0.14561,0.11871,0.80431,0.99966,0.99982,0.99498,0.99453,0.05948,0.06506,0.85698,0.003169,0.003169,0.003169
71,17587.7,0.14483,0.11832,0.80435,0.99966,0.99982,0.99498,0.99453,0.05933,0.06418,0.85694,0.00307,0.00307,0.00307
72,18272.4,inf,0.11774,0.8044,0.99966,0.99983,0.99497,0.99453,0.05915,0.0641,0.85687,0.002971,0.002971,0.002971
73,18971.8,0.14422,0.11763,0.80423,0.99966,0.99983,0.99497,0.99453,0.05905,0.06418,0.8568,0.002872,0.002872,0.002872
74,19719,0.14348,0.11704,0.80409,0.99967,0.99982,0.99497,0.99453,0.05879,0.0637,0.85675,0.002773,0.002773,0.002773
75,20439.1,0.14218,0.11551,0.80447,0.99966,0.99984,0.99497,0.99454,0.05853,0.06296,0.8567,0.002674,0.002674,0.002674
76,21121,0.14168,0.11526,0.80373,0.99966,0.99986,0.99498,0.99454,0.05837,0.06282,0.85665,0.002575,0.002575,0.002575
77,21820.3,0.13964,0.11395,0.80365,0.99965,0.99986,0.99497,0.99454,0.05822,0.06365,0.85656,0.002476,0.002476,0.002476
78,22520.7,0.13979,0.11409,0.80385,0.99968,0.99985,0.99498,0.99454,0.05811,0.06267,0.85654,0.002377,0.002377,0.002377
79,23209.1,0.13902,0.11372,0.80387,0.99968,0.99985,0.99497,0.99455,0.05821,0.06311,0.85644,0.002278,0.002278,0.002278
80,23925.7,inf,0.11231,0.80337,0.99969,0.99986,0.99497,0.99455,0.05834,0.06292,0.85639,0.002179,0.002179,0.002179
81,24673,0.13656,0.11142,0.80324,0.99969,0.99986,0.99497,0.99455,0.05813,0.06308,0.85633,0.00208,0.00208,0.00208
82,25431.5,0.13547,0.11009,0.80339,0.99968,0.99986,0.99497,0.99455,0.05821,0.06252,0.85626,0.001981,0.001981,0.001981
83,26166.3,0.13459,0.10977,0.80274,0.99967,0.99987,0.99497,0.99456,0.05816,0.06203,0.8562,0.001882,0.001882,0.001882
84,26868.8,0.13355,0.10888,0.80303,0.99967,0.99986,0.99497,0.99456,0.05816,0.0621,0.85611,0.001783,0.001783,0.001783
85,27538.6,0.13363,0.10881,0.80304,0.99967,0.99987,0.99497,0.99456,0.0582,0.06206,0.85605,0.001684,0.001684,0.001684
86,28231.9,0.1324,0.10819,0.80313,0.99967,0.99987,0.99497,0.99456,0.05808,0.06185,0.85601,0.001585,0.001585,0.001585
87,28924.2,0.13104,0.10679,0.80259,0.99967,0.99987,0.99497,0.99456,0.05787,0.06207,0.85594,0.001486,0.001486,0.001486
88,29597.6,0.13,0.10564,0.80248,0.99967,0.99987,0.99497,0.99457,0.05757,0.06184,0.85583,0.001387,0.001387,0.001387
89,30263,inf,0.10523,0.80201,0.99965,0.99988,0.99497,0.99457,0.05703,0.06109,0.85576,0.001288,0.001288,0.001288
90,30960,0.12805,0.10396,0.80188,0.99966,0.99988,0.99497,0.99457,0.05708,0.06125,0.85568,0.001189,0.001189,0.001189
91,31760.9,0.09131,0.0702,0.77967,0.99963,0.99992,0.99497,0.99457,0.05706,0.06118,0.85558,0.00109,0.00109,0.00109
92,32447,0.08822,0.06741,0.77931,0.99965,0.99992,0.99496,0.99456,0.05687,0.06118,0.85546,0.000991,0.000991,0.000991
93,33142.6,0.08661,0.06547,0.77989,0.99968,0.9999,0.99496,0.99457,0.05662,0.06067,0.85538,0.000892,0.000892,0.000892
94,33822.1,0.08549,0.06471,0.77931,0.99966,0.99991,0.99496,0.99457,0.05654,0.06098,0.85522,0.000793,0.000793,0.000793
95,34544.7,0.0842,0.06338,0.77895,0.99967,0.99991,0.99496,0.99458,0.05635,0.06099,0.85507,0.000694,0.000694,0.000694
96,35311.2,0.08292,0.06246,0.77878,0.99969,0.9999,0.99496,0.99459,0.05608,0.06052,0.85495,0.000595,0.000595,0.000595
97,35992.2,0.08156,0.06138,0.7789,0.99968,0.9999,0.99496,0.99461,0.05581,0.06018,0.85485,0.000496,0.000496,0.000496
98,36667.6,0.0803,0.05931,0.77839,0.99966,0.99991,0.99496,0.99463,0.0555,0.05943,0.85475,0.000397,0.000397,0.000397
99,37346.8,0.07868,0.05782,0.77849,0.99966,0.99992,0.99496,0.99466,0.05509,0.05977,0.85463,0.000298,0.000298,0.000298
100,38020.9,0.07758,0.05683,0.77812,0.99966,0.99993,0.99496,0.99465,0.05458,0.05952,0.85451,0.000199,0.000199,0.000199
